Rotation
Line A: Structure Position, Actual Response - Global RX (15MW-Semi-sub) [°]
Line B: Structure Position, Actual Response - Global RY (15MW-Semi-sub) [°]
Line C: Structure Position, Actual Response - Global RZ (15MW-Semi-sub) [°]

*Time (s),Line A (°),Line B (°),Line C (°)
0.0,0.0,0.0,0.0
0.1,6.83018743075081E-06,-3.60719459422398E-05,1.85268887435086E-04
0.2,4.09808744734619E-05,-1.22516677947715E-04,7.45344383176416E-04
0.3,1.14403817860875E-04,-2.49303091550246E-04,1.69175234623253E-03
0.4,2.43746151681989E-04,-3.98717413190752E-04,3.04327649064362E-03
0.5,4.34129353379831E-04,-5.5752950720489E-04,4.80941263958812E-03
0.6,7.07935367245227E-04,-7.00839853379875E-04,6.98846485465765E-03
0.7,1.07290933374316E-03,-8.1955932546407E-04,9.59332473576069E-03
0.8,1.53350806795061E-03,-8.9476874563843E-04,1.26122608780861E-02
0.9,2.10243836045265E-03,-9.12823365069926E-04,1.60412210971117E-02
1,2.78488430194557E-03,-8.60934029333293E-04,1.98665410280228E-02
1.1,3.59409768134356E-03,-7.19488365575671E-04,2.40722168236971E-02
1.2,4.53185243532062E-03,-4.85094438772649E-04,2.86398865282536E-02
1.3,5.60138281434774E-03,-1.30886153783649E-04,3.35473604500294E-02
1.4,6.81188376620412E-03,3.43849969794974E-04,0.038767758756876
1.5,8.15826840698719E-03,9.49651643168181E-04,4.42660674452782E-02
1.6,9.63972229510546E-03,1.70046836137772E-03,5.00119812786579E-02
1.7,1.12524330615997E-02,2.60149966925383E-03,5.59611208736897E-02
1.8,1.29934530705214E-02,3.6542103625834E-03,6.20844662189484E-02
1.9,1.48621816188097E-02,4.86539863049984E-03,6.83273822069168E-02
2,1.68516039848328E-02,6.22735731303692E-03,7.46552795171738E-02
2.1,1.89516339451075E-02,7.7545833773911E-03,8.10190886259079E-02
2.2,2.11554802954197E-02,9.43767465651035E-03,8.73731598258018E-02
2.3,0.023453239351511,1.12766185775399E-02,9.36718210577965E-02
2.4,0.025835532695055,1.32671426981688E-02,9.98689830303192E-02
2.5,2.82827690243721E-02,1.54109708964825E-02,0.105921097099781
2.6,3.07868607342243E-02,1.77012886852026E-02,0.111785493791103
2.7,3.33392471075058E-02,2.01244503259659E-02,0.117431446909904
2.8,0.035918615758419,2.26787831634283E-02,0.122809417545795
2.9,3.85232158005238E-02,2.53455154597759E-02,0.127890378236771
3,4.11197803914547E-02,2.81230341643095E-02,0.132635101675987
3.1,4.37116883695126E-02,3.10028027743101E-02,0.13701793551445
3.2,4.62681613862514E-02,3.39780747890472E-02,0.141011565923691
3.3,4.87891919910908E-02,3.70266884565353E-02,0.14459465444088
3.4,5.12559525668621E-02,4.01504188776016E-02,0.147748365998268
3.5,5.36479204893112E-02,4.33407835662365E-02,0.150455623865128
3.6,5.59633374214172E-02,4.65764962136745E-02,0.152712181210518
3.7,5.81816323101521E-02,4.98499386012554E-02,0.154503062367439
3.8,6.02921433746815E-02,5.31566888093948E-02,0.155820369720459
3.9,6.22896365821362E-02,5.64792826771736E-02,0.156675383448601
4,6.41587153077126E-02,5.98128885030746E-02,0.157067820429802
4.1,6.58931285142899E-02,6.31489753723145E-02,0.156999215483665
4.2,0.067486435174942,6.64769113063812E-02,0.15650562942028
4.3,6.89374879002571E-02,6.97813332080841E-02,0.155600920319557
4.4,7.02304765582085E-02,7.30588808655739E-02,0.154308155179024
4.5,7.13644623756409E-02,7.63008147478104E-02,0.15266951918602
4.6,7.23522678017616E-02,7.94962123036385E-02,0.150712668895721
4.7,7.31733217835426E-02,8.26427713036537E-02,0.14849528670311
4.8,7.38430097699165E-02,8.57287421822548E-02,0.146061733365059
4.9,7.43578523397446E-02,8.87510702013969E-02,0.14346444606781
5,7.47255459427834E-02,9.17007997632027E-02,0.140766397118568
5.1,7.49443247914314E-02,9.45691764354706E-02,0.138030827045441
5.2,7.50244706869125E-02,0.097355492413044,0.135321199893951
5.3,7.49668106436729E-02,0.100052706897259,0.132705569267273
5.4,7.47858807444572E-02,0.102657802402973,0.130253449082375
5.5,7.44987428188324E-02,0.105167277157307,0.128026887774467
5.6,7.40930289030075E-02,0.107570715248585,0.126088514924049
5.7,7.35918134450912E-02,0.109871491789818,0.124500408768654
5.8,7.30087608098984E-02,0.112075097858906,0.123325139284134
5.9,7.23464339971542E-02,0.114161409437656,0.122607983648777
6,0.071623682975769,0.116141781210899,0.122392363846302
6.1,7.08479806780815E-02,0.118008516728878,0.122713662683964
6.2,7.00340270996094E-02,0.119762234389782,0.123599968850613
6.3,0.069190613925457,0.121401838958263,0.125073224306107
6.4,6.83314651250839E-02,0.122930251061916,0.127141833305359
6.5,6.74654543399811E-02,0.124346062541008,0.129808634519577
6.6,0.066601350903511,0.125638902187347,0.133072450757027
6.7,6.57481923699379E-02,0.126823410391808,0.136917695403099
6.8,6.49247094988823E-02,0.127890884876251,0.141323879361153
6.9,6.41343221068382E-02,0.128851652145386,0.146258637309074
7,0.063386857509613,0.129700511693954,0.15168522298336
7.1,0.062690868973732,0.130444303154945,0.157571226358414
7.2,6.20552785694599E-02,0.131082117557526,0.16386204957962
7.3,6.14788196980953E-02,0.13161526620388,0.170516774058342
7.4,6.09742254018783E-02,0.132053449749947,0.177485823631287
7.5,6.05447515845299E-02,0.132394358515739,0.184714555740356
7.6,6.01976327598095E-02,0.132638365030289,0.192150130867958
7.7,5.99310956895351E-02,0.132788866758347,0.199739590287209
7.8,5.97508549690247E-02,0.132852464914322,0.207435145974159
7.9,5.96571490168572E-02,0.13282673060894,0.21518337726593
8,0.059658981859684,0.132720187306404,0.222934946417809
8.1,5.97439594566822E-02,0.132534101605415,0.230643004179001
8.2,5.99093772470951E-02,0.132262259721756,0.238262459635735
8.3,6.01627677679062E-02,0.131917342543602,0.245743781328201
8.4,0.060500755906105,0.131495222449303,0.253051161766052
8.5,6.09173513948917E-02,0.131000325083733,0.260145276784897
8.6,6.14086650311947E-02,0.130432039499283,0.266988575458527
8.7,6.19734339416027E-02,0.12978520989418,0.273549824953079
8.8,6.26065880060196E-02,0.12906502187252,0.279801249504089
8.9,6.33003786206245E-02,0.128268882632256,0.285707026720047
9,6.40478581190109E-02,0.127405405044556,0.29124116897583
9.1,6.48417472839355E-02,0.12645623087883,0.296376585960388
9.2,6.56799972057343E-02,0.12543673813343,0.301096379756927
9.3,6.65518864989281E-02,0.124328210949898,0.30537736415863
9.4,6.74428194761276E-02,0.123127311468124,0.309205055236816
9.5,0.068354532122612,0.121839180588722,0.312563240528107
9.6,6.92819282412529E-02,0.120464645326138,0.315444082021713
9.7,7.02095925807953E-02,0.118994437158108,0.317834854125977
9.8,7.11297690868378E-02,0.117421768605709,0.319727003574371
9.9,7.20279589295387E-02,0.115740761160851,0.32112044095993
10,7.28999525308609E-02,0.113958328962326,0.322010099887848
10.1,7.37383663654327E-02,0.112060323357582,0.322399169206619
10.2,7.45327025651932E-02,0.110048308968544,0.322300404310226
10.3,7.52724707126617E-02,0.107918225228786,0.321715414524078
10.4,0.075950525701046,0.105660863220692,0.320654898881912
10.5,7.65545070171356E-02,0.103282257914543,0.319133311510086
10.6,7.70872011780739E-02,0.100775577127934,0.317171424627304
10.7,7.75232687592506E-02,9.81460809707642E-02,0.31478813290596
10.8,7.78682231903076E-02,9.53945443034172E-02,0.312004595994949
10.9,7.81078264117241E-02,9.25159826874733E-02,0.308852642774582
11,7.82402381300926E-02,8.95195305347443E-02,0.305363923311234
11.1,7.82603397965431E-02,8.64039212465286E-02,0.301574170589447
11.2,7.81588330864906E-02,8.31794887781143E-02,0.297524034976959
11.3,7.79332146048546E-02,7.98461958765984E-02,0.293245226144791
11.4,7.75741636753082E-02,7.64200985431671E-02,0.288782030344009
11.5,7.70749226212502E-02,7.29097127914429E-02,0.284178197383881
11.6,0.076444111764431,6.93205371499062E-02,0.279474794864655
11.7,7.56647363305092E-02,6.56769797205925E-02,0.274712324142456
11.8,0.074738584458828,6.19815513491631E-02,0.269938379526138
11.9,7.36657828092575E-02,5.82579262554646E-02,0.265181481838226
12,7.24344179034233E-02,5.45187704265118E-02,0.260477751493454
12.1,7.10530951619148E-02,5.07823564112186E-02,0.255857944488525
12.2,6.95238187909126E-02,4.70685511827469E-02,0.251350283622742
12.3,6.78445175290108E-02,4.33943532407284E-02,0.24696846306324
12.4,6.60120919346809E-02,3.97804081439972E-02,0.242736279964447
12.5,6.40257447957993E-02,3.62456329166889E-02,0.23867304623127
12.6,6.18906393647194E-02,3.28133553266525E-02,0.234782710671425
12.7,5.96213638782501E-02,0.029497392475605,0.231079578399658
12.8,5.72103783488274E-02,0.026318272575736,0.227564185857773
12.9,5.46677708625794E-02,2.32998039573431E-02,0.224257364869118
13,5.19936978816986E-02,2.04560812562704E-02,0.221159189939499
13.1,4.92035634815693E-02,1.78030617535114E-02,0.218290418386459
13.2,4.62879836559296E-02,1.53586994856596E-02,0.215633407235146
13.3,4.32708784937859E-02,1.31297362968326E-02,0.213221520185471
13.4,4.01608347892761E-02,1.11366380006075E-02,0.21105395257473
13.5,3.69663462042809E-02,9.38108190894127E-03,0.20915712416172
13.6,0.033695112913847,7.86817073822021E-03,0.207530528306961
13.7,3.03540211170912E-02,6.62009511142969E-03,0.20618924498558
13.8,2.69624944776297E-02,5.62825473025441E-03,0.205163314938545
13.9,2.35287304967642E-02,4.89263981580734E-03,0.204458519816399
14,2.00662761926651E-02,4.41065803170204E-03,0.204102158546448
14.1,0.016583688557148,4.18262928724289E-03,0.204096496105194
14.2,1.30976270884275E-02,4.20016888529062E-03,0.204476922750473
14.3,9.62447468191385E-03,4.45930659770966E-03,0.205276280641556
14.4,6.17072591558099E-03,4.93613490834832E-03,0.206498116254807
14.5,2.75209476239979E-03,5.61952730640769E-03,0.208162054419518
14.6,-6.17575191427022E-04,6.49664737284184E-03,0.210314899682999
14.7,-3.92339797690511E-03,7.54655105993152E-03,0.212956294417381
14.8,-7.15432316064835E-03,8.75064916908741E-03,0.216126620769501
14.9,-1.02984439581633E-02,1.00890696048737E-02,0.219835743308067
15,-1.33485728874803E-02,0.011534696444869,0.224097445607185
15.1,-1.62829793989658E-02,1.30718806758523E-02,0.228918999433517
15.2,-1.90991871058941E-02,1.46707333624363E-02,0.23430971801281
15.3,-2.17835996299982E-02,1.63081604987383E-02,0.240274772047997
15.4,-2.43235044181347E-02,1.79597809910774E-02,0.246808648109436
15.5,-2.67198383808136E-02,1.96008253842592E-02,0.25390949845314
15.6,-2.89556235074997E-02,2.12030317634344E-02,0.261556357145309
15.7,-0.031031833961606,2.27407813072205E-02,0.269730865955353
15.8,-3.29374521970749E-02,0.024196483194828,0.278404474258423
15.9,-3.46709042787552E-02,0.025547482073307,0.28754460811615
16,-3.62233333289623E-02,2.67740543931723E-02,0.297108709812164
16.1,-3.75979095697403E-02,2.78480462729931E-02,0.307048290967941
16.2,-3.87862026691437E-02,2.87560075521469E-02,0.317308574914932
16.3,-3.97930778563023E-02,2.94770561158657E-02,0.32782444357872
16.4,-4.06217090785503E-02,2.99927853047848E-02,0.33852607011795
16.5,-4.12673056125641E-02,3.02945673465729E-02,0.349336177110672
16.6,-4.17465455830097E-02,3.03617380559444E-02,0.360168606042862
16.7,-4.20536063611507E-02,3.01880016922951E-02,0.370943069458008
16.8,-4.21919152140617E-02,2.97610461711884E-02,0.381569057703018
16.9,-4.21794019639492E-02,2.90745440870523E-02,0.391955018043518
17,-4.20126095414162E-02,0.028119932860136,0.402005732059479
17.1,-4.17014360427856E-02,2.68946941941977E-02,0.411630094051361
17.2,-4.12630960345268E-02,2.53963395953178E-02,0.42073580622673
17.3,-4.06937524676323E-02,2.36341916024685E-02,0.429233700037003
17.4,-4.00140397250652E-02,2.15953513979912E-02,0.437040030956268
17.5,-0.039227306842804,1.92951951175928E-02,0.444078773260117
17.6,-3.83524261415005E-02,1.67278684675694E-02,0.450270622968674
17.7,-3.74012775719166E-02,1.39062749221921E-02,0.455551385879517
17.8,-3.63874584436417E-02,1.08364829793572E-02,0.459865540266037
17.9,-3.53262275457382E-02,7.53485411405563E-03,0.463163018226624
18,-0.034222599118948,4.00741677731276E-03,0.465416043996811
18.1,-3.30969505012035E-02,2.64598056674004E-04,0.46658331155777
18.2,-3.19568961858749E-02,-3.67916584946215E-03,0.466662019491196
18.3,-3.08157186955214E-02,-7.81104434281588E-03,0.465655744075775
18.4,-2.96920798718929E-02,-1.21127720922232E-02,0.463564991950989
18.5,-0.02859259955585,-1.65704023092985E-02,0.460412383079529
18.6,-2.75349635630846E-02,-2.11668014526367E-02,0.456226378679276
18.7,-0.026525791734457,-2.58869640529156E-02,0.451056778430939
18.8,-2.55921874195337E-02,-3.07165775448084E-02,0.444951832294464
18.9,-0.024730509147048,-3.56385968625546E-02,0.437973946332932
19,-2.39644218236208E-02,-4.06340472400188E-02,0.43019050359726
19.1,-2.33073960989714E-02,-4.56911139190197E-02,0.421674102544785
19.2,-2.27471925318241E-02,-5.07815144956112E-02,0.412503331899643
19.3,-2.23229620605707E-02,-5.58943375945091E-02,0.40276050567627
19.4,-2.20277179032564E-02,-6.10196962952614E-02,0.39253643155098
19.5,-2.18663848936558E-02,-6.61337450146675E-02,0.381907343864441
19.6,-2.18541976064444E-02,-7.12228417396545E-02,0.37096381187439
19.7,-2.20029819756746E-02,-7.62693732976913E-02,0.359786808490753
19.8,-2.23194994032383E-02,-8.12616497278214E-02,0.348453164100647
19.9,-2.28002425283194E-02,-0.086184024810791,0.337033361196518
20,-2.34655998647213E-02,-9.10181105136871E-02,0.3255954682827
20.1,-2.43155211210251E-02,-0.095748171210289,0.314205706119537
20.2,-0.025349996984005,-0.100360669195652,0.302915453910828
20.3,-2.65775267034769E-02,-0.104841835796833,0.291774362325668
20.4,-2.80049368739128E-02,-0.109177768230438,0.280826896429062
20.5,-2.96236909925938E-02,-0.113354235887527,0.270114243030548
20.6,-3.14406454563141E-02,-0.117359325289726,0.259671032428741
20.7,-3.34506966173649E-02,-0.121178589761257,0.249534025788307
20.8,-3.56547310948372E-02,-0.124802656471729,0.239723637700081
20.9,-3.80434170365334E-02,-0.128222316503525,0.230267271399498
21,-0.040615051984787,-0.131419628858566,0.221193969249725
21.1,-4.33654598891735E-02,-0.134388715028763,0.212520852684975
21.2,-0.046282734721899,-0.13712540268898,0.204271748661995
21.3,-4.93609681725502E-02,-0.139616012573242,0.196472182869911
21.4,-5.25912493467331E-02,-0.141852125525475,0.189144447445869
21.5,-5.59582337737083E-02,-0.143823489546776,0.18231064081192
21.6,-5.94449378550053E-02,-0.145528495311737,0.175999775528908
21.7,-6.30381777882576E-02,-0.146955236792564,0.170243382453918
21.8,-6.67192786931992E-02,-0.148112297058105,0.165071681141853
21.9,-7.04780369997025E-02,-0.148989424109459,0.160517752170563
22,-7.42896646261215E-02,-0.149572968482971,0.156621009111404
22.1,-7.81360864639282E-02,-0.149868130683899,0.153416067361832
22.2,-8.19932892918587E-02,-0.149886786937714,0.15094693005085
22.3,-8.58429223299026E-02,-0.14960515499115,0.149245753884315
22.4,-8.96635130047798E-02,-0.149037927389145,0.148343235254288
22.5,-9.34294015169144E-02,-0.148187845945358,0.148278027772903
22.6,-0.097117118537426,-0.147053048014641,0.14907693862915
22.7,-0.100707441568375,-0.145640090107918,0.15077468752861
22.8,-0.10416804254055,-0.143952488899231,0.153371289372444
22.9,-0.107486203312874,-0.142007291316986,0.156891241669655
23,-0.110629662871361,-0.139790803194046,0.161333128809929
23.1,-0.113581895828247,-0.137320190668106,0.166696846485138
23.2,-0.116317205131054,-0.134612590074539,0.172978609800339
23.3,-0.118813306093216,-0.131671473383904,0.180169001221657
23.4,-0.12105904519558,-0.128510534763336,0.188243106007576
23.5,-0.123028732836246,-0.125140994787216,0.197174593806267
23.6,-0.124705262482166,-0.121580116450787,0.206930041313171
23.7,-0.126066356897354,-0.117842465639114,0.217471927404404
23.8,-0.127117097377777,-0.11395163834095,0.228743895888329
23.9,-0.127828374505043,-0.109910815954208,0.240698143839836
24,-0.128188267350197,-0.105744287371635,0.253268510103226
24.1,-0.128198400139809,-0.101474158465862,0.266386985778809
24.2,-0.127862200140953,-9.71161127090454E-02,0.279977649450302
24.3,-0.127159282565117,-9.26927849650383E-02,0.293957084417343
24.4,-0.126092985272408,-8.82205814123154E-02,0.308230876922607
24.5,-0.124668590724468,-8.37266519665718E-02,0.322706937789917
24.6,-0.12289472669363,-7.92252495884895E-02,0.337279111146927
24.7,-0.120779946446419,-7.47407823801041E-02,0.35184833407402
24.8,-0.118322715163231,-7.02896937727928E-02,0.366301208734512
24.9,-0.115543685853481,-6.58941939473152E-02,0.380531877279282
25,-0.112449944019318,-6.15817531943321E-02,0.394420921802521
25.1,-0.109058707952499,-5.73694333434105E-02,0.407865911722183
25.2,-0.105395779013634,-5.32665587961674E-02,0.420741498470306
25.3,-0.101479269564152,-0.04929443821311,0.432942569255829
25.4,-9.73325371742249E-02,-0.045476857572794,0.44435578584671
25.5,-9.29771736264229E-02,-4.18239422142506E-02,0.454878479242325
25.6,-8.84423553943634E-02,-3.83474119007587E-02,0.464412540197372
25.7,-8.37539210915565E-02,-3.50572876632214E-02,0.472856551408768
25.8,-7.89369717240334E-02,-3.19772474467754E-02,0.480125963687897
25.9,-7.40282610058784E-02,-0.029103497043252,0.486137211322784
26,-6.90532997250557E-02,-2.64562238007784E-02,0.490815967321396
26.1,-6.40484541654587E-02,-2.40350179374218E-02,0.494093716144562
26.2,-5.90428896248341E-02,-2.18429174274206E-02,0.495918810367584
26.3,-5.40626682341099E-02,-1.98842752724886E-02,0.49625962972641
26.4,-4.91464473307133E-02,-1.81594807654619E-02,0.495069563388824
26.5,-4.43224422633648E-02,-1.66660230606794E-02,0.49233540892601
26.6,-3.96146774291992E-02,-1.54121136292815E-02,0.488060146570206
26.7,-3.50566618144512E-02,-1.43918003886938E-02,0.482237607240677
26.8,-3.06749939918518E-02,-1.35987838730216E-02,0.47488608956337
26.9,-2.64938399195671E-02,-1.30238281562924E-02,0.466048300266266
27,-2.25414521992207E-02,-1.26649392768741E-02,0.455776393413544
27.1,-1.88295636326075E-02,-1.25117525458336E-02,0.444118797779083
27.2,-1.53837660327554E-02,-1.25546902418137E-02,0.431160688400269
27.3,-1.22218010947108E-02,-1.27842510119081E-02,0.416990756988525
27.4,-9.3484865501523E-03,-1.31842466071248E-02,0.401704996824265
27.5,-6.78812945261598E-03,-1.37571664527059E-02,0.385426372289658
27.6,-4.53835353255272E-03,-1.44818089902401E-02,0.368275344371796
27.7,-2.61136423796415E-03,-1.53479874134064E-02,0.350388288497925
27.8,-1.00909755565226E-03,-1.63386315107346E-02,0.331911712884903
27.9,2.75000144029036E-04,-1.74436140805483E-02,0.312995970249176
28,1.23555038589984E-03,-0.018647151067853,0.293794274330139
28.1,1.88164622522891E-03,-1.99383981525898E-02,0.274468034505844
28.2,2.21661757677794E-03,-2.13035997003317E-02,0.255169153213501
28.3,2.25509470328689E-03,-2.27290131151676E-02,0.236062169075012
28.4,2.00870260596275E-03,-2.41981018334627E-02,0.217305704951286
28.5,1.49074080400169E-03,-2.56987884640694E-02,0.199043706059456
28.6,7.14508641976863E-04,-2.72158160805702E-02,0.181425556540489
28.7,-2.91396398097277E-04,-2.87479292601347E-02,0.164586201310158
28.8,-1.51837524026632E-03,-3.02688200026751E-02,0.148657113313675
28.9,-2.94210598804057E-03,-0.031770333647728,0.133761212229729
29,-4.53825853765011E-03,-0.033240232616663,0.120000116527081
29.1,-6.28209440037608E-03,-3.46666537225246E-02,0.107471138238907
29.2,-8.15316196531057E-03,-3.60419899225235E-02,9.62613821029663E-02
29.3,-1.01233245804906E-02,-3.73569093644619E-02,8.64399299025536E-02
29.4,-1.21682770550251E-02,-3.85960675776005E-02,7.80597776174545E-02
29.5,-0.014260733500123,-3.97475175559521E-02,7.11652636528015E-02
29.6,-1.63789801299572E-02,-0.040803574025631,6.57840073108673E-02
29.7,-1.84960439801216E-02,-4.17558774352074E-02,6.19171410799027E-02
29.8,-2.05856934189796E-02,-0.042590320110321,5.95590434968472E-02
29.9,-2.26273741573095E-02,-4.33002486824989E-02,5.86924850940704E-02
30,-2.45950687676668E-02,-4.38805110752583E-02,5.92757239937782E-02
30.1,-2.64669843018055E-02,-4.43157106637955E-02,6.12574741244316E-02
30.2,-2.82205138355494E-02,-4.45972792804241E-02,6.45612329244614E-02
30.3,-0.029840275645256,-0.044726949185133,6.91122561693192E-02
30.4,-3.13112325966358E-02,-4.46765050292015E-02,7.48238489031792E-02
30.5,-3.26086841523647E-02,-4.44554090499878E-02,8.15918669104576E-02
30.6,-3.37173826992512E-02,-4.40517067909241E-02,8.93022865056992E-02
30.7,-3.46253253519535E-02,-4.34616208076477E-02,0.097847543656826
